 Defined Configuration:----------------------
Number of components: 2 
Equation of State:    CPA+RG 
Mixing Rule:          VdW1f 
Components:           CO2, n-Butane 
Feed Composition:     [0.3, 0.7] 
Association Rule:     2B, 2B 
Combining Rule:       CR-1 
============================================
P(MPa);x1;y1

0.07125313;0.001;0.026794249
0.078803323;0.005;0.121383134
0.088258854;0.01;0.217125606
0.097728889;0.015;0.294517214
0.107216469;0.02;0.358384129
0.116722138;0.025;0.411983908
0.126246384;0.03;0.457605855
0.135789633;0.035;0.496905947
0.145352245;0.04;0.531111722
0.154934512;0.045;0.561152454
0.164536653;0.05;0.587744588
0.174158808;0.055;0.611449386
0.183801035;0.06;0.632712804
0.19346331;0.065;0.651893671
0.203145519;0.07;0.669283983
0.212847455;0.075;0.685123786
0.222568815;0.08;0.699612241
0.232309197;0.085;0.712915979
0.242068097;0.09;0.725175489
0.251844907;0.095;0.736510052
0.261638909;0.1;0.747021604
0.271449275;0.105;0.756797779
0.281275102;0.11;0.765914305
0.291115947;0.115;0.774436557
0.300971797;0.12;0.782421259
0.310842674;0.125;0.789918108
0.320728626;0.13;0.796970835
0.330629729;0.135;0.803618072
0.34054609;0.14;0.809894076
0.35047784;0.145;0.815829329
0.36042514;0.15;0.821451044
0.370388183;0.155;0.826783594
0.380367193;0.16;0.831848868
0.390362428;0.165;0.836666582
0.400374177;0.17;0.841254542
0.410402763;0.175;0.84562887
0.420448547;0.18;0.849804196
0.430511927;0.185;0.853793828
0.440593338;0.19;0.857609897
0.450693253;0.195;0.861263485
0.46081219;0.2;0.864764735
0.470950698;0.205;0.868122952
0.481109118;0.21;0.871346765
0.491287543;0.215;0.874444206
0.501486042;0.22;0.877422684
0.511704683;0.225;0.880289048
0.521943518;0.23;0.883049633
0.532202589;0.235;0.885710313
0.542481931;0.24;0.888276537
0.552781568;0.245;0.890753372
0.563101514;0.25;0.893145529
0.573441767;0.255;0.895457404
0.583802316;0.26;0.897693092
0.594183141;0.265;0.899856422
0.604584206;0.27;0.901950974
0.615005463;0.275;0.903980098
0.625446848;0.28;0.905946937
0.63590829;0.285;0.907854435
0.646389698;0.29;0.909705361
0.656890972;0.295;0.911502316
0.667412114;0.3;0.913247725
0.677953239;0.305;0.914943853
0.688514467;0.31;0.916592835
0.699095922;0.315;0.918196682
0.709697733;0.32;0.919757294
0.720320039;0.325;0.921276466
0.730962977;0.33;0.922755894
0.74162669;0.335;0.924197184
0.752311331;0.34;0.925601856
0.763017057;0.345;0.926971351
0.773744027;0.35;0.928307035
0.784492406;0.355;0.929610206
0.795262372;0.36;0.930882094
0.806054102;0.365;0.932123869
0.81686778;0.37;0.933336645
0.8277036;0.375;0.93452148
0.838561758;0.38;0.935679381
0.849442403;0.385;0.936811317
0.860345642;0.39;0.937918212
0.87127159;0.395;0.939000949
0.882220356;0.4;0.94006037
0.893192927;0.405;0.94109717
0.904187692;0.41;0.942112339
0.915205602;0.415;0.943106502
0.926246764;0.42;0.944080365
0.937311284;0.425;0.945034599
0.948399273;0.43;0.945969849
0.959510835;0.435;0.946886731
0.970646077;0.44;0.947785838
0.981805108;0.445;0.948667733
0.992988032;0.45;0.949532963
1.004194951;0.455;0.950382047
1.015425974;0.46;0.951215489
1.026681225;0.465;0.95203377
1.037960841;0.47;0.952837352
1.049264968;0.475;0.953626681
1.060593749;0.48;0.954402181
1.071947329;0.485;0.955164265
1.08332586;0.49;0.955913324
1.094729503;0.495;0.956649732
1.106158413;0.5;0.957373849
1.117612757;0.505;0.958086022
1.129092698;0.51;0.958786584
1.1405984;0.515;0.95947586
1.152130032;0.52;0.960154161
1.163687757;0.525;0.960821796
1.175271723;0.53;0.961479072
1.186882083;0.535;0.96212629
1.198518985;0.54;0.962763736
1.210182571;0.545;0.963391688
1.221872992;0.55;0.964010412
1.233590398;0.555;0.964620165
1.245334941;0.56;0.965221196
1.257106806;0.565;0.965813722
1.268906207;0.57;0.96639793
1.280733359;0.575;0.966974
1.292588479;0.58;0.967542112
1.304471777;0.585;0.968102441
1.316383464;0.59;0.968655158
1.32832375;0.595;0.969200435
1.34029284;0.6;0.969738438
1.352290939;0.605;0.970269333
1.364318175;0.61;0.970793343
1.37637461;0.615;0.971310733
1.38846032;0.62;0.971821757
1.400575387;0.625;0.972326655
1.41271991;0.63;0.972825654
1.424893997;0.635;0.973318967
1.437097764;0.64;0.973806798
1.449331346;0.645;0.974289339
1.461594878;0.65;0.974766771
1.473888522;0.655;0.975239261
1.486212645;0.66;0.975706826
1.498567788;0.665;0.976169357
1.51095449;0.67;0.976626758
1.52337325;0.675;0.977078953
1.535824552;0.68;0.977525886
1.548308851;0.685;0.97796752
1.560826574;0.69;0.978403834
1.573378132;0.695;0.978834825
1.585963904;0.7;0.979260506
1.598584254;0.705;0.979680904
1.611239516;0.71;0.980096062
1.623929732;0.715;0.980506225
1.636654404;0.72;0.980912
1.649413045;0.725;0.981313984
1.662205245;0.73;0.981712719
1.675030649;0.735;0.982108703
1.687888973;0.74;0.982502396
1.700779975;0.745;0.982894222
1.713703478;0.75;0.983284574
1.726659343;0.755;0.983673818
1.739647495;0.76;0.984062295
1.752667903;0.765;0.98445032
1.765720598;0.77;0.984838184
1.778805752;0.775;0.985226098
1.791924914;0.78;0.98561334
1.805080612;0.785;0.985998503
1.8182752;0.79;0.986380283
1.831510749;0.795;0.986757544
1.844789007;0.8;0.987129342
1.858111377;0.805;0.987494938
1.87147892;0.81;0.987853794
1.884892382;0.815;0.988205559
1.898352215;0.82;0.988550046
1.911858623;0.825;0.988887214
1.925411589;0.83;0.98921714
1.939010916;0.835;0.989539996
1.952656251;0.84;0.989856031
1.96634711;0.845;0.990165551
1.980087067;0.85;0.990468866
1.993867245;0.855;0.990766445
2.007690875;0.86;0.991058652
2.021557074;0.865;0.991345913
2.03546488;0.87;0.991628666
2.04941322;0.875;0.991907362
2.063400927;0.88;0.992182458
2.077426701;0.885;0.992454423
2.091489108;0.89;0.992723737
2.105586547;0.895;0.992990892
2.119717221;0.9;0.993256397
2.133879105;0.905;0.993520783
2.148069888;0.91;0.993784609
2.162286929;0.915;0.994048468
2.176527172;0.92;0.994312998
2.190787064;0.925;0.994578894
2.205062431;0.93;0.994846923
2.219263896;0.935;0.9951615
2.233385231;0.94;0.995533737
2.247545758;0.945;0.995905732
2.26174584;0.95;0.996277546
2.275985826;0.955;0.996649245
2.29026608;0.96;0.99702089
2.304586986;0.965;0.997392547
2.318948936;0.97;0.997764281
2.333352344;0.975;0.998136156
2.347797643;0.98;0.998508239
2.362285284;0.985;0.998880597
2.376815743;0.99;0.999253297
2.421822215;0.995;0.99994722
